# format  : curve #1.x (tab) curve #1.y (tab) curve #2.x (tab) curve #2.y (tab) ...
# title   : Simulated Spectrum
# abscissa: Energy [eV]
# ordinate: Intensity [counts]
#==========================================================================================================
# Curve #1 (x,y): Config ##: 1
# Reference: W.S.M. Werner, W. Smekal and C. J. Powell, Simulation of Electron Spectra for Surface Analysis (SESSA V2.0) National Institute of Standards and Technology, Gaithersburg, MD (2010), 
# Reliability: 
# Remarks: 
#==========================================================================================================
1.380000e+003	7.302833e-009	
1.380006e+003	7.310513e-009	
1.380012e+003	7.318299e-009	
1.380018e+003	7.326125e-009	
1.380023e+003	7.334041e-009	
1.380029e+003	7.342005e-009	
1.380035e+003	7.350031e-009	
1.380041e+003	7.358130e-009	
1.380047e+003	7.366285e-009	
1.380053e+003	7.374478e-009	
1.380059e+003	7.382762e-009	
1.380064e+003	7.391100e-009	
1.380070e+003	7.399497e-009	
1.380076e+003	7.407965e-009	
1.380082e+003	7.416491e-009	
1.380088e+003	7.425053e-009	
1.380094e+003	7.433703e-009	
1.380100e+003	7.442372e-009	
1.380105e+003	7.452019e-009	
1.380111e+003	7.461758e-009	
1.380117e+003	7.471547e-009	
1.380123e+003	7.481404e-009	
1.380129e+003	7.491308e-009	
1.380135e+003	7.501279e-009	
1.380141e+003	7.511267e-009	
1.380146e+003	7.521315e-009	
1.380152e+003	7.531400e-009	
1.380158e+003	7.541532e-009	
1.380164e+003	7.551716e-009	
1.380170e+003	7.561946e-009	
1.380176e+003	7.572231e-009	
1.380182e+003	7.582564e-009	
1.380188e+003	7.592940e-009	
1.380193e+003	7.603346e-009	
1.380199e+003	7.613811e-009	
1.380205e+003	7.625811e-009	
1.380211e+003	7.638037e-009	
1.380217e+003	7.650326e-009	
1.380223e+003	7.662663e-009	
1.380229e+003	7.675010e-009	
1.380234e+003	7.687404e-009	
1.380240e+003	7.699844e-009	
1.380246e+003	7.712310e-009	
1.380252e+003	7.724828e-009	
1.380258e+003	7.737386e-009	
1.380264e+003	7.749979e-009	
1.380270e+003	7.762586e-009	
1.380275e+003	7.775219e-009	
1.380281e+003	7.787921e-009	
1.380287e+003	7.800630e-009	
1.380293e+003	7.813380e-009	
1.380299e+003	7.826146e-009	
1.380305e+003	7.841254e-009	
1.380311e+003	7.856963e-009	
1.380316e+003	7.872709e-009	
1.380322e+003	7.888485e-009	
1.380328e+003	7.904314e-009	
1.380334e+003	7.920161e-009	
1.380340e+003	7.936023e-009	
1.380346e+003	7.951942e-009	
1.380352e+003	7.967858e-009	
1.380357e+003	7.983830e-009	
1.380363e+003	7.999827e-009	
1.380369e+003	8.015840e-009	
1.380375e+003	8.031941e-009	
1.380381e+003	8.048050e-009	
1.380387e+003	8.064214e-009	
1.380393e+003	8.080391e-009	
1.380398e+003	8.096601e-009	
1.380404e+003	8.115133e-009	
1.380410e+003	8.134482e-009	
1.380416e+003	8.153880e-009	
1.380422e+003	8.173306e-009	
1.380428e+003	8.192780e-009	
1.380434e+003	8.212247e-009	
1.380439e+003	8.231764e-009	
1.380445e+003	8.251294e-009	
1.380451e+003	8.270854e-009	
1.380457e+003	8.290428e-009	
1.380463e+003	8.310026e-009	
1.380469e+003	8.329660e-009	
1.380475e+003	8.349299e-009	
1.380480e+003	8.368970e-009	
1.380486e+003	8.388671e-009	
1.380492e+003	8.408390e-009	
1.380498e+003	8.428119e-009	
1.380504e+003	8.449903e-009	
1.380510e+003	8.472611e-009	
1.380516e+003	8.495381e-009	
1.380521e+003	8.518187e-009	
1.380527e+003	8.540985e-009	
1.380533e+003	8.563831e-009	
1.380539e+003	8.586689e-009	
1.380545e+003	8.609555e-009	
1.380551e+003	8.632462e-009	
1.380557e+003	8.655378e-009	
1.380562e+003	8.678311e-009	
1.380568e+003	8.701266e-009	
1.380574e+003	8.724242e-009	
1.380580e+003	8.747239e-009	
1.380586e+003	8.770254e-009	
1.380592e+003	8.793283e-009	
1.380598e+003	8.816341e-009	
1.380604e+003	8.842395e-009	
1.380609e+003	8.870218e-009	
1.380615e+003	8.898136e-009	
1.380621e+003	8.926060e-009	
1.380627e+003	8.954012e-009	
1.380633e+003	8.981976e-009	
1.380639e+003	9.009981e-009	
1.380645e+003	9.037960e-009	
1.380650e+003	9.065997e-009	
1.380656e+003	9.094030e-009	
1.380662e+003	9.122094e-009	
1.380668e+003	9.150145e-009	
1.380674e+003	9.178263e-009	
1.380680e+003	9.206384e-009	
1.380686e+003	9.234522e-009	
1.380691e+003	9.262693e-009	
1.380697e+003	9.290872e-009	
1.380703e+003	9.322652e-009	
1.380709e+003	9.357013e-009	
1.380715e+003	9.391545e-009	
1.380721e+003	9.426092e-009	
1.380727e+003	9.460674e-009	
1.380732e+003	9.495265e-009	
1.380738e+003	9.529882e-009	
1.380744e+003	9.564489e-009	
1.380750e+003	9.599128e-009	
1.380756e+003	9.633789e-009	
1.380762e+003	9.668437e-009	
1.380768e+003	9.703130e-009	
1.380773e+003	9.737838e-009	
1.380779e+003	9.772555e-009	
1.380785e+003	9.807313e-009	
1.380791e+003	9.842084e-009	
1.380797e+003	9.876858e-009	
1.380803e+003	9.914952e-009	
1.380809e+003	9.956308e-009	
1.380814e+003	9.997867e-009	
1.380820e+003	1.003944e-008	
1.380826e+003	1.008103e-008	
1.380832e+003	1.012265e-008	
1.380838e+003	1.016427e-008	
1.380844e+003	1.020590e-008	
1.380850e+003	1.024757e-008	
1.380855e+003	1.028924e-008	
1.380861e+003	1.033092e-008	
1.380867e+003	1.037262e-008	
1.380873e+003	1.041432e-008	
1.380879e+003	1.045606e-008	
1.380885e+003	1.049782e-008	
1.380891e+003	1.053960e-008	
1.380896e+003	1.058138e-008	
1.380902e+003	1.062654e-008	
1.380908e+003	1.067569e-008	
1.380914e+003	1.072519e-008	
1.380920e+003	1.077471e-008	
1.380926e+003	1.082424e-008	
1.380932e+003	1.087377e-008	
1.380938e+003	1.092332e-008	
1.380943e+003	1.097289e-008	
1.380949e+003	1.102247e-008	
1.380955e+003	1.107204e-008	
1.380961e+003	1.112165e-008	
1.380967e+003	1.117126e-008	
1.380973e+003	1.122088e-008	
1.380979e+003	1.127054e-008	
1.380984e+003	1.132021e-008	
1.380990e+003	1.136988e-008	
1.380996e+003	1.141958e-008	
1.381002e+003	1.147359e-008	
1.381008e+003	1.153403e-008	
1.381014e+003	1.159503e-008	
1.381020e+003	1.165606e-008	
1.381025e+003	1.171708e-008	
1.381031e+003	1.177811e-008	
1.381037e+003	1.183916e-008	
1.381043e+003	1.190021e-008	
1.381049e+003	1.196127e-008	
1.381055e+003	1.202236e-008	
1.381061e+003	1.208345e-008	
1.381066e+003	1.214454e-008	
1.381072e+003	1.220564e-008	
1.381078e+003	1.226676e-008	
1.381084e+003	1.232790e-008	
1.381090e+003	1.238901e-008	
1.381096e+003	1.245017e-008	
1.381102e+003	1.251552e-008	
1.381107e+003	1.258883e-008	
1.381113e+003	1.266284e-008	
1.381119e+003	1.273688e-008	
1.381125e+003	1.281092e-008	
1.381131e+003	1.288497e-008	
1.381137e+003	1.295903e-008	
1.381143e+003	1.303312e-008	
1.381148e+003	1.310722e-008	
1.381154e+003	1.318131e-008	
1.381160e+003	1.325544e-008	
1.381166e+003	1.332955e-008	
1.381172e+003	1.340373e-008	
1.381178e+003	1.347791e-008	
1.381184e+003	1.355212e-008	
1.381189e+003	1.362634e-008	
1.381195e+003	1.370059e-008	
1.381201e+003	1.377872e-008	
1.381207e+003	1.386588e-008	
1.381213e+003	1.395407e-008	
1.381219e+003	1.404225e-008	
1.381225e+003	1.413044e-008	
1.381230e+003	1.421863e-008	
1.381236e+003	1.430686e-008	
1.381242e+003	1.439508e-008	
1.381248e+003	1.448332e-008	
1.381254e+003	1.457158e-008	
1.381260e+003	1.465983e-008	
1.381266e+003	1.474809e-008	
1.381271e+003	1.483637e-008	
1.381277e+003	1.492464e-008	
1.381283e+003	1.501291e-008	
1.381289e+003	1.510121e-008	
1.381295e+003	1.518951e-008	
1.381301e+003	1.528113e-008	
1.381307e+003	1.538423e-008	
1.381312e+003	1.548866e-008	
1.381318e+003	1.559310e-008	
1.381324e+003	1.569754e-008	
1.381330e+003	1.580198e-008	
1.381336e+003	1.590644e-008	
1.381342e+003	1.601090e-008	
1.381348e+003	1.611538e-008	
1.381354e+003	1.621987e-008	
1.381359e+003	1.632439e-008	
1.381365e+003	1.642888e-008	
1.381371e+003	1.653342e-008	
1.381377e+003	1.663798e-008	
1.381383e+003	1.674258e-008	
1.381389e+003	1.684717e-008	
1.381395e+003	1.695178e-008	
1.381400e+003	1.705965e-008	
1.381406e+003	1.718208e-008	
1.381412e+003	1.730655e-008	
1.381418e+003	1.743103e-008	
1.381424e+003	1.755550e-008	
1.381430e+003	1.767999e-008	
1.381436e+003	1.780450e-008	
1.381441e+003	1.792902e-008	
1.381447e+003	1.805354e-008	
1.381453e+003	1.817807e-008	
1.381459e+003	1.830261e-008	
1.381465e+003	1.842715e-008	
1.381471e+003	1.855172e-008	
1.381477e+003	1.867631e-008	
1.381482e+003	1.880092e-008	
1.381488e+003	1.892551e-008	
1.381494e+003	1.905014e-008	
1.381500e+003	1.917714e-008	
1.381506e+003	1.932128e-008	
1.381512e+003	1.946781e-008	
1.381518e+003	1.961437e-008	
1.381523e+003	1.976094e-008	
1.381529e+003	1.990749e-008	
1.381535e+003	2.005406e-008	
1.381541e+003	2.020065e-008	
1.381547e+003	2.034723e-008	
1.381553e+003	2.049384e-008	
1.381559e+003	2.064044e-008	
1.381564e+003	2.078705e-008	
1.381570e+003	2.093369e-008	
1.381576e+003	2.108034e-008	
1.381582e+003	2.122703e-008	
1.381588e+003	2.137372e-008	
1.381594e+003	2.152042e-008	
1.381600e+003	2.166829e-008	
1.381605e+003	2.183375e-008	
1.381611e+003	2.200172e-008	
1.381617e+003	2.216971e-008	
1.381623e+003	2.233768e-008	
1.381629e+003	2.250567e-008	
1.381635e+003	2.267365e-008	
1.381641e+003	2.284165e-008	
1.381646e+003	2.300967e-008	
1.381652e+003	2.317769e-008	
1.381658e+003	2.334572e-008	
1.381664e+003	2.351376e-008	
1.381670e+003	2.368179e-008	
1.381676e+003	2.384984e-008	
1.381682e+003	2.401791e-008	
1.381688e+003	2.418599e-008	
1.381693e+003	2.435405e-008	
1.381699e+003	2.452256e-008	
1.381705e+003	2.471101e-008	
1.381711e+003	2.490290e-008	
1.381717e+003	2.509478e-008	
1.381723e+003	2.528667e-008	
1.381729e+003	2.547857e-008	
1.381734e+003	2.567049e-008	
1.381740e+003	2.586237e-008	
1.381746e+003	2.605431e-008	
1.381752e+003	2.624624e-008	
1.381758e+003	2.643817e-008	
1.381764e+003	2.663011e-008	
1.381770e+003	2.682207e-008	
1.381775e+003	2.701407e-008	
1.381781e+003	2.720607e-008	
1.381787e+003	2.739808e-008	
1.381793e+003	2.759011e-008	
1.381799e+003	2.778213e-008	
1.381805e+003	2.799509e-008	
1.381811e+003	2.821301e-008	
1.381816e+003	2.843117e-008	
1.381822e+003	2.864931e-008	
1.381828e+003	2.886749e-008	
1.381834e+003	2.908567e-008	
1.381840e+003	2.930384e-008	
1.381846e+003	2.952202e-008	
1.381852e+003	2.974022e-008	
1.381857e+003	2.995837e-008	
1.381863e+003	3.017660e-008	
1.381869e+003	3.039480e-008	
1.381875e+003	3.061305e-008	
1.381881e+003	3.083130e-008	
1.381887e+003	3.104957e-008	
1.381893e+003	3.126782e-008	
1.381898e+003	3.148608e-008	
1.381904e+003	3.172239e-008	
1.381910e+003	3.196441e-008	
1.381916e+003	3.220682e-008	
1.381922e+003	3.244925e-008	
1.381928e+003	3.269169e-008	
1.381934e+003	3.293413e-008	
1.381939e+003	3.317659e-008	
1.381945e+003	3.341905e-008	
1.381951e+003	3.366150e-008	
1.381957e+003	3.390397e-008	
1.381963e+003	3.414645e-008	
1.381969e+003	3.438889e-008	
1.381975e+003	3.463137e-008	
1.381980e+003	3.487383e-008	
1.381986e+003	3.511629e-008	
1.381992e+003	3.535877e-008	
1.381998e+003	3.560121e-008	
1.382004e+003	3.585802e-008	
1.382010e+003	3.612052e-008	
1.382016e+003	3.638360e-008	
1.382021e+003	3.664671e-008	
1.382027e+003	3.690984e-008	
1.382033e+003	3.717297e-008	
1.382039e+003	3.743607e-008	
1.382045e+003	3.769919e-008	
1.382051e+003	3.796231e-008	
1.382057e+003	3.822544e-008	
1.382062e+003	3.848859e-008	
1.382068e+003	3.875170e-008	
1.382074e+003	3.901495e-008	
1.382080e+003	3.927825e-008	
1.382086e+003	3.954154e-008	
1.382092e+003	3.980481e-008	
1.382098e+003	4.006811e-008	
1.382104e+003	4.034463e-008	
1.382109e+003	4.062773e-008	
1.382115e+003	4.091154e-008	
1.382121e+003	4.119544e-008	
1.382127e+003	4.147933e-008	
1.382133e+003	4.176323e-008	
1.382139e+003	4.204710e-008	
1.382145e+003	4.233101e-008	
1.382150e+003	4.261494e-008	
1.382156e+003	4.289880e-008	
1.382162e+003	4.318272e-008	
1.382168e+003	4.346662e-008	
1.382174e+003	4.375052e-008	
1.382180e+003	4.403442e-008	
1.382186e+003	4.431828e-008	
1.382191e+003	4.460216e-008	
1.382197e+003	4.488603e-008	
1.382203e+003	4.517929e-008	
1.382209e+003	4.547816e-008	
1.382215e+003	4.577782e-008	
1.382221e+003	4.607750e-008	
1.382227e+003	4.637715e-008	
1.382232e+003	4.667686e-008	
1.382238e+003	4.697655e-008	
1.382244e+003	4.727621e-008	
1.382250e+003	4.757592e-008	
1.382256e+003	4.787562e-008	
1.382262e+003	4.817535e-008	
1.382268e+003	4.847504e-008	
1.382273e+003	4.877483e-008	
1.382279e+003	4.907464e-008	
1.382285e+003	4.937449e-008	
1.382291e+003	4.967433e-008	
1.382297e+003	4.997413e-008	
1.382303e+003	5.027775e-008	
1.382309e+003	5.058432e-008	
1.382314e+003	5.089133e-008	
1.382320e+003	5.119840e-008	
1.382326e+003	5.150545e-008	
1.382332e+003	5.181246e-008	
1.382338e+003	5.211954e-008	
1.382344e+003	5.242658e-008	
1.382350e+003	5.273364e-008	
1.382355e+003	5.304071e-008	
1.382361e+003	5.334777e-008	
1.382367e+003	5.365486e-008	
1.382373e+003	5.396193e-008	
1.382379e+003	5.426901e-008	
1.382385e+003	5.457611e-008	
1.382391e+003	5.488318e-008	
1.382396e+003	5.519028e-008	
1.382402e+003	5.549669e-008	
1.382408e+003	5.580257e-008	
1.382414e+003	5.610829e-008	
1.382420e+003	5.641403e-008	
1.382426e+003	5.671977e-008	
1.382432e+003	5.702553e-008	
1.382438e+003	5.733129e-008	
1.382443e+003	5.763706e-008	
1.382449e+003	5.794281e-008	
1.382455e+003	5.824858e-008	
1.382461e+003	5.855433e-008	
1.382467e+003	5.886014e-008	
1.382473e+003	5.916595e-008	
1.382479e+003	5.947174e-008	
1.382484e+003	5.977757e-008	
1.382490e+003	6.008342e-008	
1.382496e+003	6.038925e-008	
1.382502e+003	6.069308e-008	
1.382508e+003	6.099469e-008	
1.382514e+003	6.129582e-008	
1.382520e+003	6.159696e-008	
1.382525e+003	6.189813e-008	
1.382531e+003	6.219927e-008	
1.382537e+003	6.250044e-008	
1.382543e+003	6.280157e-008	
1.382549e+003	6.310273e-008	
1.382555e+003	6.340390e-008	
1.382561e+003	6.370502e-008	
1.382566e+003	6.400622e-008	
1.382572e+003	6.430739e-008	
1.382578e+003	6.460866e-008	
1.382584e+003	6.490991e-008	
1.382590e+003	6.521119e-008	
1.382596e+003	6.551247e-008	
1.382602e+003	6.580887e-008	
1.382607e+003	6.609879e-008	
1.382613e+003	6.638728e-008	
1.382619e+003	6.667577e-008	
1.382625e+003	6.696429e-008	
1.382631e+003	6.725279e-008	
1.382637e+003	6.754131e-008	
1.382643e+003	6.782977e-008	
1.382648e+003	6.811828e-008	
1.382654e+003	6.840681e-008	
1.382660e+003	6.869531e-008	
1.382666e+003	6.898383e-008	
1.382672e+003	6.927235e-008	
1.382678e+003	6.956093e-008	
1.382684e+003	6.984946e-008	
1.382689e+003	7.013803e-008	
1.382695e+003	7.042656e-008	
1.382701e+003	7.070597e-008	
1.382707e+003	7.097077e-008	
1.382713e+003	7.123210e-008	
1.382719e+003	7.149345e-008	
1.382725e+003	7.175473e-008	
1.382730e+003	7.201608e-008	
1.382736e+003	7.227739e-008	
1.382742e+003	7.253873e-008	
1.382748e+003	7.280008e-008	
1.382754e+003	7.306139e-008	
1.382760e+003	7.332272e-008	
1.382766e+003	7.358407e-008	
1.382771e+003	7.384541e-008	
1.382777e+003	7.410679e-008	
1.382783e+003	7.436820e-008	
1.382789e+003	7.462962e-008	
1.382795e+003	7.489103e-008	
1.382801e+003	7.514419e-008	
1.382807e+003	7.537989e-008	
1.382812e+003	7.561118e-008	
1.382818e+003	7.584242e-008	
1.382824e+003	7.607367e-008	
1.382830e+003	7.630492e-008	
1.382836e+003	7.653617e-008	
1.382842e+003	7.676743e-008	
1.382848e+003	7.699865e-008	
1.382854e+003	7.722994e-008	
1.382859e+003	7.746121e-008	
1.382865e+003	7.769250e-008	
1.382871e+003	7.792376e-008	
1.382877e+003	7.815510e-008	
1.382883e+003	7.838639e-008	
1.382889e+003	7.861770e-008	
1.382895e+003	7.884903e-008	
1.382900e+003	7.907321e-008	
1.382906e+003	7.927930e-008	
1.382912e+003	7.948021e-008	
1.382918e+003	7.968109e-008	
1.382924e+003	7.988203e-008	
1.382930e+003	8.008295e-008	
1.382936e+003	8.028383e-008	
1.382941e+003	8.048475e-008	
1.382947e+003	8.068570e-008	
1.382953e+003	8.088657e-008	
1.382959e+003	8.108746e-008	
1.382965e+003	8.128837e-008	
1.382971e+003	8.148936e-008	
1.382977e+003	8.169037e-008	
1.382982e+003	8.189139e-008	
1.382988e+003	8.209237e-008	
1.382994e+003	8.229344e-008	
1.383000e+003	8.248824e-008	
1.383006e+003	8.266220e-008	
1.383012e+003	8.282998e-008	
1.383018e+003	8.299766e-008	
1.383023e+003	8.316539e-008	
1.383029e+003	8.333312e-008	
1.383035e+003	8.350087e-008	
1.383041e+003	8.366862e-008	
1.383047e+003	8.383633e-008	
1.383053e+003	8.400409e-008	
1.383059e+003	8.417181e-008	
1.383064e+003	8.433956e-008	
1.383070e+003	8.450735e-008	
1.383076e+003	8.467514e-008	
1.383082e+003	8.484298e-008	
1.383088e+003	8.501080e-008	
1.383094e+003	8.517868e-008	
1.383100e+003	8.534103e-008	
1.383105e+003	8.547762e-008	
1.383111e+003	8.560628e-008	
1.383117e+003	8.573490e-008	
1.383123e+003	8.586355e-008	
1.383129e+003	8.599222e-008	
1.383135e+003	8.612086e-008	
1.383141e+003	8.624950e-008	
1.383146e+003	8.637814e-008	
1.383152e+003	8.650686e-008	
1.383158e+003	8.663550e-008	
1.383164e+003	8.676414e-008	
1.383170e+003	8.689280e-008	
1.383176e+003	8.702157e-008	
1.383182e+003	8.715038e-008	
1.383188e+003	8.727917e-008	
1.383193e+003	8.740793e-008	
1.383199e+003	8.753389e-008	
1.383205e+003	8.764199e-008	
1.383211e+003	8.774387e-008	
1.383217e+003	8.784573e-008	
1.383223e+003	8.794765e-008	
1.383229e+003	8.804955e-008	
1.383234e+003	8.815139e-008	
1.383240e+003	8.825334e-008	
1.383246e+003	8.835522e-008	
1.383252e+003	8.845718e-008	
1.383258e+003	8.855909e-008	
1.383264e+003	8.866096e-008	
1.383270e+003	8.876290e-008	
1.383275e+003	8.886486e-008	
1.383281e+003	8.896688e-008	
1.383287e+003	8.906888e-008	
1.383293e+003	8.917090e-008	
1.383299e+003	8.927218e-008	
1.383305e+003	8.936262e-008	
1.383311e+003	8.944919e-008	
1.383316e+003	8.953577e-008	
1.383322e+003	8.962233e-008	
1.383328e+003	8.970883e-008	
1.383334e+003	8.979541e-008	
1.383340e+003	8.988187e-008	
1.383346e+003	8.996836e-008	
1.383352e+003	9.005494e-008	
1.383357e+003	9.014144e-008	
1.383363e+003	9.022796e-008	
1.383369e+003	9.031456e-008	
1.383375e+003	9.040111e-008	
1.383381e+003	9.048784e-008	
1.383387e+003	9.057450e-008	
1.383393e+003	9.066119e-008	
1.383398e+003	9.074763e-008	
1.383404e+003	9.082404e-008	
1.383410e+003	9.089630e-008	
1.383416e+003	9.096865e-008	
1.383422e+003	9.104097e-008	
1.383428e+003	9.111336e-008	
1.383434e+003	9.118571e-008	
1.383439e+003	9.125807e-008	
1.383445e+003	9.133039e-008	
1.383451e+003	9.140276e-008	
1.383457e+003	9.147513e-008	
1.383463e+003	9.154748e-008	
1.383469e+003	9.161984e-008	
1.383475e+003	9.169233e-008	
1.383480e+003	9.176484e-008	
1.383486e+003	9.183729e-008	
1.383492e+003	9.190984e-008	
1.383498e+003	9.198244e-008	
1.383504e+003	9.204513e-008	
1.383510e+003	9.210334e-008	
1.383516e+003	9.216132e-008	
1.383521e+003	9.221922e-008	
1.383527e+003	9.227733e-008	
1.383533e+003	9.233526e-008	
1.383539e+003	9.239323e-008	
1.383545e+003	9.245123e-008	
1.383551e+003	9.250917e-008	
1.383557e+003	9.256723e-008	
1.383562e+003	9.262531e-008	
1.383568e+003	9.268328e-008	
1.383574e+003	9.274136e-008	
1.383580e+003	9.279950e-008	
1.383586e+003	9.285767e-008	
1.383592e+003	9.291580e-008	
1.383598e+003	9.297388e-008	
1.383604e+003	9.303968e-008	
1.383609e+003	9.310966e-008	
1.383615e+003	9.317996e-008	
1.383621e+003	9.325017e-008	
1.383627e+003	9.332044e-008	
1.383633e+003	9.339068e-008	
1.383639e+003	9.346087e-008	
1.383645e+003	9.353109e-008	
1.383650e+003	9.360131e-008	
1.383656e+003	9.367172e-008	
1.383662e+003	9.374200e-008	
1.383668e+003	9.381220e-008	
1.383674e+003	9.388251e-008	
1.383680e+003	9.395291e-008	
1.383686e+003	9.402319e-008	
1.383691e+003	9.409364e-008	
1.383697e+003	9.416410e-008	
1.383703e+003	9.424858e-008	
1.383709e+003	9.434189e-008	
1.383715e+003	9.443633e-008	
1.383721e+003	9.453071e-008	
1.383727e+003	9.462514e-008	
1.383732e+003	9.471956e-008	
1.383738e+003	9.481403e-008	
1.383744e+003	9.490841e-008	
1.383750e+003	9.500278e-008	
1.383756e+003	9.509729e-008	
1.383762e+003	9.519177e-008	
1.383768e+003	9.528614e-008	
1.383773e+003	9.538064e-008	
